MTS793|MPT|ENU|1|2|.|/|:|1|0|0|A

Data Acquisition						Time:	102.51709	s	6/4/2018 3:22:02 PM
Time	MTS 4 Displacement 4	MTS 4 Force 4
s	mm	N
0.11474609	-2.0861626e-05	-32.787865
0.21484375	0.0030040741	-14.318433
0.31494141	0.0057995319	13.890956
0.41503906	0.0094383955	37.388226
0.51513672	0.013789535	61.482563
0.61523438	0.017547607	84.477379
0.71533203	0.020179152	106.8579
0.81542969	0.022664666	130.07149
0.91552734	0.026276708	158.27855
1.015625	0.028631091	184.53262
1.1157227	0.033023953	207.97635
1.2158203	0.035342574	231.96927
1.315918	0.038558245	255.3356
1.4160156	0.042802095	278.91223
1.5161133	0.045835972	303.82574
1.6162109	0.04927814	328.0773
1.7163086	0.052136183	350.07764
1.8164063	0.055295229	376.62869
1.9165039	0.059315562	402.06528
2.0166016	0.062555075	427.01547
2.1166992	0.065511465	454.07703
2.2167969	0.069126487	477.00189
2.3168945	0.070729852	501.30057
2.4169922	0.075826049	525.62335
2.5170898	0.079259276	549.59424
2.6171875	0.082302094	575.49597
2.7172852	0.084429979	600.49939
2.8173828	0.088515878	627.64722
2.9174805	0.091341138	650.58813
3.0175781	0.094908476	676.7829
3.1176758	0.098964572	702.3371
3.2177734	0.10224581	727.13281
3.3178711	0.10484755	755.17249
3.4179688	0.10940135	778.11877
3.5180664	0.11167228	802.04205
3.6181641	0.11488199	826.5282
3.7182617	0.11894107	850.15479
3.8183594	0.12176037	874.20856
3.918457	0.12475252	900.29193
4.0185547	0.12832284	924.54584
4.1186523	0.13158023	947.83295
4.21875	0.13544858	972.33533
4.3188477	0.13863742	997.0567
4.4189453	0.14196038	1023.152
4.519043	0.14454424	1047.2568
4.6191406	0.1473546	1071.9075
4.7192383	0.15190542	1097.319
4.8193359	0.15468895	1122.8812
4.9194336	0.15715361	1147.0544
5.0195313	0.16108751	1172.2208
5.1196289	0.16439855	1198.5897
5.2197266	0.16843677	1221.7291
5.3198242	0.17175972	1244.9722
5.4199219	0.17448366	1270.2693
5.5200195	0.17854869	1296.1893
5.6201172	0.18233061	1319.2013
5.7202148	0.18491149	1344.4485
5.8203125	0.18834174	1369.615
5.9204102	0.19209683	1395.0704
6.0205078	0.19439459	1419.3445
6.1206055	0.19769073	1444.5645
6.2207031	0.2016753	1468.7251
6.3208008	0.20614862	1491.9991
6.4208984	0.20763278	1516.5052
6.5209961	0.21110475	1542.1555
6.6210938	0.21409094	1571.8137
6.7211914	0.21938384	1596.5175
6.8212891	0.22183955	1618.6808
6.9213867	0.22472143	1642.9569
7.0214844	0.22826195	1666.5054
7.121582	0.23127794	1689.8972
7.2216797	0.23493767	1715.1099
7.3217773	0.23975372	1738.1846
7.421875	0.24192929	1763.0753
7.5219727	0.24535656	1789.7515
7.6220703	0.24885833	1814.7146
7.722168	0.25213063	1839.8719
7.8222656	0.25512576	1862.5083
7.9223633	0.25838315	1887.6746
8.0224609	0.26157498	1911.1891
8.1225586	0.26402771	1934.6152
8.2226563	0.2684325	1962.2725
8.3227539	0.27163327	1987.7935
8.4228516	0.2746284	2012.9447
8.5229492	0.27838647	2038.4846
8.6230469	0.28235018	2062.5278
8.7231445	0.28528869	2087.728
8.8232422	0.28872192	2110.5229
8.9233398	0.29223859	2132.6079
9.0234375	0.29537082	2156.1509
9.1235352	0.29824972	2181.0161
9.2236328	0.30108094	2204.9072
9.3237305	0.30508339	2229.6211
9.4238281	0.30792654	2255.303
9.5239258	0.31201243	2281.4082
9.6240234	0.31472445	2305.4185
9.7241211	0.31867325	2331.0359
9.8242188	0.32252669	2355.5457
9.9243164	0.32606423	2380.9229
10.024414	0.32829344	2408.5723
10.124512	0.33207834	2435.9609
10.224609	0.33660233	2458.0771
10.324707	0.33941567	2480.6089
10.424805	0.34333467	2506.4766
10.524902	0.34677386	2532.959
10.625	0.35077631	2557.4224
10.725098	0.35377145	2585.8357
10.825195	0.35812557	2619.8257
10.925293	0.36566854	2665.3245
11.025391	0.36894083	2691.7822
11.125488	0.37151575	2715.9231
11.225586	0.37426054	2737.5349
11.325684	0.37847161	2761.8091
11.425781	0.3821224	2784.2998
11.525879	0.3844589	2809.3413
11.625977	0.38793683	2830.9802
11.726074	0.39054751	2854.5261
11.826172	0.39425492	2877.3992
11.92627	0.39789975	2900.6272
12.026367	0.40072501	2924.0815
12.126465	0.40495098	2946.9248
12.226563	0.40620565	2970.0684
12.32666	0.41049123	2993.6851
12.426758	0.41286945	3015.5569
12.526855	0.4165858	3040.4436
12.626953	0.42021871	3063.5657
12.727051	0.42400658	3087.2952
12.827148	0.42738914	3110.6897
12.927246	0.42932928	3131.9634
13.027344	0.43294132	3155.0364
13.127441	0.43607652	3177.626
13.227539	0.43956041	3201.8169
13.327637	0.442788	3227.0015
13.427734	0.44647753	3250.0024
13.527832	0.44880509	3272.9131
13.62793	0.45204461	3296.874
13.728027	0.45497119	3318.3762
13.828125	0.45840442	3342.5842
13.928223	0.46193004	3365.1765
14.02832	0.46457648	3387.5073
14.128418	0.46869814	3412.3032
14.228516	0.47176778	3437.5842
14.328613	0.47433376	3461.8113
14.428711	0.47995746	3485.519
14.528809	0.48099756	3507.6167
14.628906	0.48494637	3531.9282
14.729004	0.48863888	3552.8921
14.829102	0.491184	3577.408
14.929199	0.49563348	3600.3718
15.029297	0.49773157	3626.2827
15.129395	0.50227046	3647.8621
15.229492	0.50578415	3670.1621
15.32959	0.50782859	3693.0083
15.429688	0.51249266	3718.0161
15.529785	0.51532686	3742.3047
15.629883	0.51768422	3767.4702
15.72998	0.52204728	3790.8762
15.830078	0.5251497	3813.6135
15.930176	0.52770674	3837.02
16.030273	0.53128302	3861.4202
16.130371	0.53547919	3885.7275
16.230469	0.53809285	3909.8145
16.330566	0.54149032	3931.3462
16.430664	0.54390728	3954.7993
16.530762	0.54826736	3980.4646
16.630859	0.55235028	4005.1584
16.730957	0.55489838	4028.4368
16.831055	0.55833459	4052.7993
16.931152	0.56138039	4072.9861
17.03125	0.56450069	4099.9429
17.131348	0.56804717	4125.3672
17.231445	0.57123899	4145.8164
17.331543	0.5743891	4169.3218
17.431641	0.57844818	4192.458
17.531738	0.58076978	4217.001
17.631836	0.5859673	4240.9248
17.731934	0.58836341	4264.2925
17.832031	0.59198737	4287.6572
17.932129	0.59459209	4309.6777
18.032227	0.59869885	4335.0137
18.132324	0.60244799	4358.8022
18.232422	0.60480535	4380.3662
18.33252	0.60872436	4407.166
18.432617	0.61194003	4431.3911
18.532715	0.61508417	4454.79
18.632813	0.61839819	4477.6138
18.73291	0.62278211	4501.2715
18.833008	0.62498152	4524.8276
18.933105	0.62878728	4549.7124
19.033203	0.63220561	4574.2349
19.133301	0.63501894	4594.4551
19.233398	0.63810647	4620.7461
19.333496	0.64211786	4644.4668
19.433594	0.6441474	4667.1685
19.533691	0.64847469	4689.9097
19.633789	0.6526947	4711.2422
19.733887	0.65578818	4734.8389
19.833984	0.65797865	4760.7109
19.934082	0.66212118	4784.4595
20.03418	0.66548884	4810.0527
20.134277	0.66909194	4832.561
20.234375	0.67121685	4857.2759
20.334473	0.67549348	4880.6982
20.43457	0.67750514	4904.9653
20.534668	0.68291128	4926.9951
20.634766	0.68471432	4947.3467
20.734863	0.68842173	4970.5386
20.834961	0.69351196	5007.3921
20.935059	0.6965369	5029.9785
21.035156	0.69907904	5049.5273
21.135254	0.70266128	5070.6338
21.235352	0.70664883	5094.3394
21.335449	0.70877671	5119.6665
21.435547	0.71110427	5135.8364
21.535645	0.71493685	5157.9146
21.635742	0.71794093	5184.0332
21.73584	0.72081089	5207.4443
21.835938	0.72577298	5231.7813
21.936035	0.72847903	5257.7554
22.036133	0.73280931	5281.1499
22.13623	0.73613226	5301.5088
22.236328	0.73898435	5325.5376
22.336426	0.74206889	5346.8511
22.436523	0.74553192	5370.4341
22.536621	0.74962676	5393.5288
22.636719	0.75207353	5417.9741
22.736816	0.75531006	5441.9136
22.836914	0.75931251	5464.3271
22.937012	0.76267123	5489.6392
23.037109	0.76556206	5512.0796
23.137207	0.76892078	5535.3047
23.237305	0.7719785	5555.9463
23.337402	0.77578723	5580.0239
23.4375	0.77887774	5604.1733
23.537598	0.78204274	5624.6162
23.637695	0.78500807	5646.9736
23.737793	0.78893602	5671.3545
23.837891	0.79210103	5696.7778
23.937988	0.79596639	5719.0747
24.038086	0.79819858	5741.1235
24.138184	0.80215931	5764.7412
24.238281	0.80489218	5788.8989
24.338379	0.80960691	5813.4028
24.438477	0.81192255	5833.4038
24.538574	0.81643462	5856.6147
24.638672	0.81906617	5880.2578
24.73877	0.82288384	5903.876
24.838867	0.82527995	5925.375
24.938965	0.82813799	5952.4536
25.039063	0.83286464	5973.4214
25.13916	0.83521605	5994.8853
25.239258	0.83854795	6020.4849
25.339355	0.84244609	6043.9082
25.439453	0.84660649	6066.7661
25.539551	0.84884465	6091.0508
25.639648	0.85254312	6114.1348
25.739746	0.8554399	6135.3735
25.839844	0.85908175	6159.9707
25.939941	0.86185932	6182.2041
26.040039	0.86556673	6207.0029
26.140137	0.86912513	6229.9214
26.240234	0.87305009	6254.0073
26.340332	0.87616444	6278.2847
26.44043	0.87935925	6299.8267
26.540527	0.88288784	6325.8667
26.640625	0.88638067	6350.5264
26.740723	0.88917911	6372.2227
26.84082	0.89274943	6394.0327
26.940918	0.89708269	6415.8545
27.041016	0.89943409	6439.1685
27.141113	0.90292096	6462.8726
27.241211	0.90581477	6484.3848
27.341309	0.90989769	6508.5308
27.441406	0.91391802	6532.8433
27.541504	0.91664493	6555.9985
27.641602	0.92021525	6578.1689
27.741699	0.92323124	6605.9736
27.841797	0.92730522	6629.9717
27.941895	0.93040168	6653.4131
28.041992	0.93386471	6676.2793
28.14209	0.93663037	6696.0771
28.242188	0.94054043	6718.1509
28.342285	0.94320476	6739.2178
28.442383	0.94634295	6762.2852
28.54248	0.95000863	6783.5703
28.642578	0.95305741	6808.0308
28.742676	0.95623732	6829.1387
28.842773	0.95971227	6852.8599
28.942871	0.96349418	6875.0269
29.042969	0.96779168	6898.0825
29.143066	0.96965134	6918.8394
29.243164	0.97376704	6943.3091
29.343262	0.97517967	6964.4678
29.443359	0.97950399	6985.3682
29.543457	0.98249018	7010.8413
29.643555	0.98657012	7034.9072
29.743652	0.98883808	7056.4004
29.84375	0.99311471	7081.4004
29.943848	0.99668503	7105.0576
30.043945	1.0001183	7128.1089
30.144043	1.0025531	7149.1294
30.244141	1.0056764	7171.9214
30.344238	1.0103941	7194.1587
30.444336	1.0122627	7218.1704
30.544434	1.0163367	7241.2422
30.644531	1.0195524	7265.5483
30.744629	1.0228604	7286.8984
30.844727	1.0263085	7309.6514
30.944824	1.0289133	7330.79
31.044922	1.0323554	7354.5259
31.14502	1.036489	7377.998
31.245117	1.0392308	7399.9575
31.345215	1.0429114	7422.0479
31.445313	1.0455847	7447.5464
31.54541	1.0499924	7470.832
31.645508	1.0528088	7494.8867
31.745605	1.0564297	7515.519
31.845703	1.0604233	7540.1611
31.945801	1.0624349	7564.6279
32.045898	1.0661483	7588.6821
32.145996	1.0697216	7610.7964
32.246094	1.0724992	7631.106
32.346191	1.0759681	7653.6558
32.446289	1.0790735	7676.6123
32.546387	1.0848999	7696.3149
32.646484	1.0861337	7718.4258
32.746582	1.088658	7742.7563
32.84668	1.0931879	7765.5967
32.946777	1.0960549	7789.3682
33.046875	1.0994077	7810.5352
33.146973	1.1030287	7835.8125
33.24707	1.1058152	7858.4688
33.347168	1.1092305	7879.082
33.447266	1.1129916	7901.6675
33.547363	1.1166573	7924.6729
33.647461	1.1185676	7946.5122
33.747559	1.1230409	7970.6641
33.847656	1.1257052	7993.1211
33.947754	1.1301726	8014.6733
34.047852	1.1333555	8035.2505
34.147949	1.1362493	8059.2749
34.248047	1.1393458	8081.5708
34.348145	1.1432141	8103.3867
34.448242	1.1466116	8128.3057
34.54834	1.1490077	8149.4243
34.648438	1.1537105	8173.4497
34.748535	1.1557281	8192.2451
34.848633	1.1583775	8217.0908
34.94873	1.1622757	8239.4512
35.048828	1.1667132	8263.4521
35.148926	1.1678696	8286.041
35.249023	1.1733443	8308.0703
35.349121	1.1763692	8332.3447
35.449219	1.1799753	8361.6875
35.549316	1.1841267	8382.042
35.649414	1.1873543	8403.3047
35.749512	1.19133	8425.7598
35.849609	1.1933535	8446.0742
35.949707	1.1952996	8467.9072
36.049805	1.1997372	8490.4502
36.149902	1.2038618	8511.9648
36.25	1.2068421	8535.165
36.350098	1.209715	8557.8115
36.450195	1.2131721	8579.4434
36.550293	1.2156546	8599.2471
36.650391	1.220566	8622.2178
36.750488	1.2226135	8645.3721
36.850586	1.2266129	8665.9141
36.950684	1.2297243	8692.9277
37.050781	1.2339383	8714.6172
37.150879	1.2362242	8737.2891
37.250977	1.239413	8757.2842
37.351074	1.2430429	8780.0859
37.451172	1.2464464	8804.6582
37.55127	1.2502342	8825.0938
37.651367	1.2525082	8847.0361
37.751465	1.2570709	8871.876
37.851563	1.2604356	8894.873
37.95166	1.2643486	8915.9443
38.051758	1.265797	8937.1133
38.151855	1.2709886	8959.7578
38.251953	1.2723058	8982.0029
38.352051	1.2769759	9002.6982
38.452148	1.2794882	9024.5684
38.552246	1.2834251	9049.9697
38.652344	1.286155	9072.3594
38.752441	1.2898594	9094.666
38.852539	1.2930125	9116.9814
38.952637	1.2976348	9139.2051
39.052734	1.3005167	9162.5693
39.152832	1.3033509	9183.958
39.25293	1.3072431	9207.4023
39.353027	1.3111711	9228.3506
39.453125	1.3130367	9250.3047
39.553223	1.31585	9274.1563
39.65332	1.3201058	9298.084
39.753418	1.3235807	9317.7734
39.853516	1.3267994	9339.1836
39.953613	1.3303757	9363.9199
40.053711	1.3346642	9388.1152
40.153809	1.3364494	9409.7178
40.253906	1.3405681	9432.457
40.354004	1.3431013	9451.8906
40.454102	1.3472229	9474.248
40.554199	1.3505697	9497.6289
40.654297	1.3536245	9520.0723
40.754395	1.3560444	9543.0488
40.854492	1.3595849	9564.9219
40.95459	1.3632953	9587.1279
41.054688	1.3670683	9608.8096
41.154785	1.369068	9631.793
41.254883	1.3733059	9655.6709
41.35498	1.3773143	9675.8828
41.455078	1.380679	9697.4932
41.555176	1.3829976	9719.6885
41.655273	1.3863772	9740.4658
41.755371	1.3899982	9763.4316
41.855469	1.3931543	9786.7422
41.955566	1.3971955	9809.4619
42.055664	1.4000744	9830.1807
42.155762	1.402995	9852.4727
42.255859	1.4065415	9873.7754
42.355957	1.4090449	9895.7256
42.456055	1.4127642	9917.5527
42.556152	1.4166594	9942.6768
42.65625	1.4194876	9964.6797
42.756348	1.4231741	9987.1377
42.856445	1.4274389	10008.771
42.956543	1.4301687	10031.545
43.056641	1.4346957	10051.871
43.156738	1.4366508	10072.904
43.256836	1.4406174	10092.456
43.356934	1.4431238	10115.077
43.457031	1.4456302	10136.495
43.557129	1.4491379	10159.933
43.657227	1.4536619	10181.212
43.757324	1.4567077	10205.134
43.857422	1.4602274	10229.017
43.95752	1.463747	10250.817
44.057617	1.4664114	10272.519
44.157715	1.4694214	10293.548
44.257813	1.4729977	10315.6
44.35791	1.4755219	10336.904
44.458008	1.4803946	10357.768
44.558105	1.4833927	10380.15
44.658203	1.4863044	10403.419
44.758301	1.4896274	10426.218
44.858398	1.4937341	10449.391
44.958496	1.4967084	10470.737
45.058594	1.500228	10493.152
45.158691	1.5036792	10513.697
45.258789	1.5070319	10534.352
45.358887	1.5098065	10556.898
45.458984	1.5133917	10580.193
45.559082	1.5163153	10602.018
45.65918	1.5200347	10621.439
45.759277	1.5224308	10647.106
45.859375	1.5268058	10669.042
45.959473	1.5313834	10692.283
46.05957	1.5328199	10712.86
46.159668	1.5365213	10736.189
46.259766	1.5415996	10757.315
46.359863	1.5436471	10778.216
46.459961	1.5466005	10795.897
46.560059	1.54939	10820.826
46.660156	1.5538275	10844.515
46.760254	1.5573829	10864.341
46.860352	1.5617013	10887.154
46.960449	1.5631318	10906.221
47.060547	1.5664726	10929.257
47.160645	1.5702248	10952.023
47.260742	1.5727639	10977.262
47.36084	1.5763342	10997.733
47.460938	1.5801668	11019.992
47.561035	1.5837908	11042.103
47.661133	1.5871853	11065.021
47.76123	1.5917301	11083.887
47.861328	1.5936702	11104.935
47.961426	1.5959084	11122.957
48.061523	1.6008765	11146.043
48.161621	1.6038924	11170.036
48.261719	1.606667	11190.017
48.361816	1.6101271	11211.759
48.461914	1.6131848	11234.465
48.562012	1.6170233	11257.618
48.662109	1.6199589	11280.277
48.762207	1.6235739	11302.201
48.862305	1.6279221	11321.373
48.962402	1.6304046	11343.502
49.0625	1.6332775	11366.354
49.162598	1.6365558	11389.479
49.262695	1.6399235	11411.969
49.362793	1.643768	11429.964
49.462891	1.6463012	11453.591
49.562988	1.6494066	11473.957
49.663086	1.6535282	11499.95
49.763184	1.6565382	11522.175
49.863281	1.6589433	11543.742
49.963379	1.6631216	11562.472
50.063477	1.6665131	11587.413
50.163574	1.6699672	11608.721
50.263672	1.673758	11631.487
50.36377	1.6772479	11652.044
50.463867	1.6801298	11673.901
50.563965	1.6836017	11697.355
50.664063	1.6870081	11718.562
50.76416	1.690349	11740.347
50.864258	1.6942054	11760.773
50.964355	1.6962409	11781.352
51.064453	1.7003804	11804.188
51.164551	1.7034262	11825.662
51.264648	1.7074406	11847.845
51.364746	1.7104268	11870.191
51.464844	1.7138571	11891.491
51.564941	1.7153323	11912.744
51.665039	1.7203569	11934.269
51.765137	1.7229825	11957.17
51.865234	1.7266542	11977.905
51.965332	1.7296672	11998.507
52.06543	1.7334104	12021.202
52.165527	1.7356694	12041.663
52.265625	1.7396539	12063.063
52.365723	1.7439693	12084.192
52.46582	1.7471731	12108.338
52.565918	1.7503977	12130.651
52.666016	1.7539322	12150.027
52.766113	1.756528	12172.454
52.866211	1.760152	12192.235
52.966309	1.7626196	12213.303
53.066406	1.7671615	12232.699
53.166504	1.7698437	12257.768
53.266602	1.7737478	12281.783
53.366699	1.7770916	12304.687
53.466797	1.7791957	12324.753
53.566895	1.7835081	12345.298
53.666992	1.7864645	12366.95
53.76709	1.7909318	12388.467
53.867188	1.7936558	12408.814
53.967285	1.7971158	12432.466
54.067383	1.7992973	12451.518
54.16748	1.8036962	12473.7
54.267578	1.8068492	12495.45
54.367676	1.8094957	12516.225
54.467773	1.8138498	12538.11
54.567871	1.8163353	12558.298
54.667969	1.8197238	12581.056
54.768066	1.8227786	12603.212
54.868164	1.8262148	12624.001
54.968262	1.8302113	12645.771
55.068359	1.8335879	12665.875
55.168457	1.8356025	12689.31
55.268555	1.8396288	12708.915
55.368652	1.8425435	12730.972
55.46875	1.8466711	12752.823
55.568848	1.8499911	12773.801
55.668945	1.853627	12797.235
55.769043	1.8573701	12819.7
55.869141	1.8593937	12840.911
55.969238	1.8640846	12861.913
56.069336	1.8669099	12884.615
56.169434	1.8702537	12904.075
56.269531	1.8738806	12926.23
56.369629	1.8770337	12951.14
56.469727	1.8792301	12970.616
56.569824	1.884678	12994.254
56.669922	1.8869251	13014.7
56.77002	1.8900901	13036.173
56.870117	1.8936127	13056.181
56.970215	1.896888	13078.815
57.070313	1.9004226	13099.539
57.17041	1.9030601	13121.588
57.270508	1.9070029	13142.265
57.370605	1.910612	13164.521
57.470703	1.9134462	13184.959
57.570801	1.9168705	13205.731
57.670898	1.9195318	13227.967
57.770996	1.9235075	13251.01
57.871094	1.9272268	13271.309
57.971191	1.9304097	13292.3
58.071289	1.932469	13313.867
58.171387	1.9361466	13335.798
58.271484	1.9399554	13358.099
58.371582	1.9438684	13378.587
58.47168	1.9468099	13401.443
58.571777	1.9501358	13422.877
58.671875	1.9538373	13444.928
58.771973	1.9572109	13466.277
58.87207	1.9603193	13486.526
58.972168	1.9645691	13507.271
59.072266	1.9663602	13527.469
59.172363	1.9698441	13549.056
59.272461	1.9740403	13569.108
59.372559	1.9767225	13589.882
59.472656	1.9806653	13611.512
59.572754	1.9844085	13632.471
59.672852	1.9868851	13654.546
59.772949	1.9906849	13678.121
59.873047	1.9934237	13698.163
59.973145	1.9970864	13720.67
60.073242	2.0006924	13742.668
60.17334	2.0042686	13766.312
60.273438	2.0075083	13787.16
60.373535	2.0110817	13806.981
60.473633	2.0150928	13826.684
60.57373	2.0168006	13846.133
60.673828	2.0195456	13867.173
60.773926	2.0239382	13891.544
60.874023	2.0267189	13911.286
60.974121	2.030319	13932.566
61.074219	2.0331354	13952.297
61.174316	2.0369916	13973.087
61.274414	2.0404637	13995.432
61.374512	2.0430593	14016.871
61.474609	2.0478487	14038.962
61.574707	2.0504088	14063.445
61.674805	2.0542204	14083.391
61.774902	2.0576148	14105.719
61.875	2.0610719	14126.424
61.975098	2.0639272	14144.111
62.075195	2.0669966	14164.341
62.175293	2.0704925	14183.98
62.275391	2.0735025	14206.101
62.375488	2.0775409	14226.033
62.475586	2.0803781	14247.503
62.575684	2.0830572	14268.235
62.675781	2.0878463	14290.576
62.775879	2.0906835	14312.463
62.875977	2.0948796	14335.295
62.976074	2.0979941	14358.723
63.076172	2.1007419	14379.524
63.17627	2.1034093	14399.606
63.276367	2.1076531	14421.284
63.376465	2.1104336	14441.152
63.476563	2.1143198	14461.58
63.57666	2.1170139	14481.527
63.676758	2.1201701	14503.457
63.776855	2.1231918	14521.717
63.876953	2.1270514	14543.159
63.977051	2.1299243	14563.951
64.077148	2.1342397	14587.242
64.177246	2.137342	14608.572
64.277344	2.1407814	14629.226
64.377441	2.1428466	14648.64
64.477539	2.1465719	14670.813
64.577637	2.1508842	14689.641
64.677734	2.1537929	14711.501
64.777832	2.1577418	14734.609
64.87793	2.160409	14757.752
64.978027	2.1640153	14778.234
65.078125	2.1665363	14797.638
65.178223	2.1701515	14819.396
65.27832	2.1731763	14839.688
65.378418	2.1762757	14859.37
65.478516	2.1804838	14880.751
65.578613	2.1851659	14900.733
65.678711	2.1854341	14919.609
65.778809	2.1897645	14941.102
