MTS793|MPT|ENU|1|2|.|/|:|1|0|0|A

Data Acquisition						Time:	97.145996	s	6/4/2018 2:43:20 PM
Time	MTS 4 Displacement 4	MTS 4 Force 4
s	mm	N
0.11474609	0.00056922436	-99.428001
0.21484375	0.0025629997	-79.663467
0.31494141	0.0066101551	-54.088329
0.41503906	0.0095039606	-29.913616
0.51513672	0.012072921	-6.0346909
0.61523438	0.016066432	21.243374
0.71533203	0.020238757	47.226528
0.81542969	0.023040175	71.369949
0.91552734	0.026455522	97.74649
1.015625	0.029268861	121.06924
1.1157227	0.032746792	147.26938
1.2158203	0.035372376	173.04765
1.315918	0.03913343	200.9511
1.4160156	0.042483211	226.67908
1.5161133	0.045606494	250.81981
1.6162109	0.049820542	276.1485
1.7163086	0.051867962	301.94324
1.8164063	0.056001544	327.26367
1.9165039	0.058701634	351.84695
2.0166016	0.061717629	378.27557
2.1166992	0.065049529	404.18124
2.2167969	0.068348646	432.62979
2.3168945	0.071918964	458.14673
2.4169922	0.07442832	483.42395
2.5170898	0.07828176	512.01599
2.6171875	0.080746412	537.88196
2.7172852	0.085264444	563.2948
2.8173828	0.087961555	589.21063
2.9174805	0.091013312	615.97363
3.0175781	0.094547868	636.92065
3.1176758	0.097385049	665.02197
3.2177734	0.10171831	691.99139
3.3178711	0.10576546	713.0976
3.4179688	0.1077652	741.46643
3.5180664	0.11158884	770.40729
3.6181641	0.11422038	793.50964
3.7182617	0.11824667	821.4212
3.8183594	0.12115538	848.81549
3.918457	0.12540519	876.70544
4.0185547	0.12728274	900.51672
4.1186523	0.13041198	924.90479
4.21875	0.13419688	952.30426
4.3188477	0.13811886	975.94794
4.4189453	0.14080405	1002.5236
4.519043	0.14455914	1029.3241
4.6191406	0.14804006	1055.9753
4.7192383	0.15083551	1080.6213
4.8193359	0.15507936	1109.9822
4.9194336	0.15866458	1133.1527
5.0195313	0.159958	1159.807
5.1196289	0.16400814	1182.6226
5.2197266	0.16716421	1210.7847
5.3198242	0.17096996	1237.6959
5.4199219	0.17397404	1260.959
5.5200195	0.17795563	1288.2092
5.6201172	0.18225014	1314.3197
5.7202148	0.18508136	1342.0078
5.8203125	0.18946826	1366.9121
5.9204102	0.1912564	1392.1865
6.0205078	0.19429028	1417.3099
6.1206055	0.19749105	1441.8489
6.2207031	0.1996398	1469.9791
6.3208008	0.2050072	1496.2225
6.4208984	0.20765364	1519.8662
6.5209961	0.21102428	1548.3395
6.6210938	0.21446347	1573.2153
6.7211914	0.21709502	1598.8458
6.8212891	0.22237897	1622.8525
6.9213867	0.22434294	1648.9723
7.0214844	0.22807121	1673.937
7.121582	0.23130178	1701.2917
7.2216797	0.23439229	1726.2192
7.3217773	0.23768842	1752.4635
7.421875	0.24042726	1778.6515
7.5219727	0.24394691	1806.2501
7.6220703	0.24730265	1830.9867
7.722168	0.25131404	1854.7921
7.8222656	0.25416613	1879.5492
7.9223633	0.25739074	1905.4865
8.0224609	0.26253164	1932.0094
8.1225586	0.26400685	1956.9729
8.2226563	0.26861727	1987.7079
8.3227539	0.27111471	2012.3586
8.4228516	0.27569234	2038.307
8.5229492	0.27787983	2064.2056
8.6230469	0.28215051	2091.3594
8.7231445	0.28420091	2115.4827
8.8232422	0.28737783	2141.9712
8.9233398	0.29199421	2167.0391
9.0234375	0.29458106	2189.8984
9.1235352	0.29821992	2218.1101
9.2236328	0.30141175	2243.0334
9.3237305	0.3049165	2267.584
9.4238281	0.30852854	2292.5974
9.5239258	0.31161904	2316.3616
9.6240234	0.31469464	2340.3083
9.7241211	0.31774044	2368.1416
9.8242188	0.32114685	2394.1262
9.9243164	0.32449365	2418.3489
10.024414	0.32788515	2443.2925
10.124512	0.33168495	2469.8708
10.224609	0.33374429	2492.719
10.324707	0.33806562	2518.7568
10.424805	0.34089684	2548.0305
10.524902	0.34505427	2575.5286
10.625	0.34806132	2598.4797
10.725098	0.35197735	2624.8833
10.825195	0.35409629	2648.3484
10.925293	0.35808086	2674.5173
11.025391	0.36141276	2701.814
11.125488	0.3649801	2727.3459
11.225586	0.3667444	2745.5735
11.325684	0.37213266	2779.959
11.425781	0.37593842	2805.7424
11.525879	0.37963092	2831.699
11.625977	0.38102567	2854.4983
11.726074	0.3852874	2881.0623
11.826172	0.38881004	2905.6135
11.92627	0.39098561	2930.5161
12.026367	0.39513707	2956.4216
12.126465	0.39916337	2985.7073
12.226563	0.40240586	3010.1812
12.32666	0.40552616	3035.042
12.426758	0.40908456	3059.4238
12.526855	0.41278899	3090.488
12.626953	0.41612983	3116.2781
12.727051	0.41975677	3138.2947
12.827148	0.42316318	3162.4697
12.927246	0.42549074	3188.6155
13.027344	0.42927563	3215.7686
13.127441	0.43332577	3241.2566
13.227539	0.43829679	3284.8169
13.327637	0.44448376	3334.9656
13.427734	0.44900179	3360.5073
13.527832	0.45163631	3382.3801
13.62793	0.45457184	3405.0515
13.728027	0.4578352	3433.0442
13.828125	0.46182573	3456.1292
13.928223	0.4653126	3481.0559
14.02832	0.46794415	3506.1433
14.128418	0.47133565	3528.7124
14.228516	0.47421753	3551.9766
14.328613	0.47726631	3575.1377
14.428711	0.48053563	3597.3999
14.528809	0.48299432	3617.9102
14.628906	0.4869312	3645.8369
14.729004	0.48979521	3670.719
14.829102	0.49392879	3694.9761
14.929199	0.49616098	3717.5425
15.029297	0.50087273	3740.532
15.129395	0.50287843	3763.7991
15.229492	0.50554872	3786.386
15.32959	0.50959885	3814.3496
15.429688	0.51267147	3838.7998
15.529785	0.51589906	3861.6282
15.629883	0.51885843	3883.623
15.72998	0.5212307	3911.1643
15.830078	0.52630901	3937.8518
15.930176	0.52903593	3961.2336
16.030273	0.53343475	3985.4727
16.130371	0.53471327	4008.8157
16.230469	0.53884387	4033.9565
16.330566	0.54216683	4058.7759
16.430664	0.54578185	4080.9927
16.530762	0.54867566	4105.4189
16.630859	0.55188537	4130.4116
16.730957	0.55541694	4154.3267
16.831055	0.55824816	4180.563
16.931152	0.56191385	4201.1133
17.03125	0.56453347	4227.3428
17.131348	0.56809485	4252.0615
17.231445	0.57148635	4278.7915
17.331543	0.57516694	4303.6069
17.431641	0.57713091	4325.6885
17.531738	0.58198869	4349.8042
17.631836	0.58442652	4373.6079
17.731934	0.58846772	4401.0029
17.832031	0.59070587	4425.2285
17.932129	0.59418678	4448.1382
18.032227	0.59748292	4476.002
18.132324	0.60088336	4501.7607
18.232422	0.60509145	4526.4683
18.33252	0.60816705	4551.7715
18.432617	0.61117709	4574.6992
18.532715	0.61430931	4597.0718
18.632813	0.61773658	4624.0532
18.73291	0.62148571	4647.7319
18.833008	0.62541366	4671.4805
18.933105	0.6275624	4697.7837
19.033203	0.63138008	4719.8423
19.133301	0.63451827	4745.3584
19.233398	0.63868165	4772.1133
19.333496	0.64094067	4794.5493
19.433594	0.64462125	4821.0557
19.533691	0.6477505	4846.1064
19.633789	0.65217018	4871.3813
19.733887	0.65465271	4894.5444
19.833984	0.65762401	4920.1968
19.934082	0.66176355	4944.2202
20.03418	0.66532493	4966.7515
20.134277	0.66748261	4991.2534
20.234375	0.67183673	5019.4478
20.334473	0.67495406	5042.8706
20.43457	0.67853928	5069.3926
20.534668	0.68069994	5092.7837
20.634766	0.68404973	5117.1328
20.734863	0.68726242	5140.27
20.834961	0.69116056	5165.4238
20.935059	0.69429576	5191.9141
21.035156	0.69827437	5216.667
21.135254	0.70138574	5240.813
21.235352	0.70417523	5265.0337
21.335449	0.70753098	5288.8877
21.435547	0.71100295	5314.2671
21.535645	0.71517825	5339.396
21.635742	0.71819425	5363.895
21.73584	0.72146952	5385.0972
21.835938	0.72509944	5411.0928
21.936035	0.7276386	5434.9541
22.036133	0.73101223	5457.0234
22.13623	0.73474944	5484.5664
22.236328	0.73789954	5507.3579
22.336426	0.74100494	5531.7593
22.436523	0.74489117	5556.792
22.536621	0.74780285	5582.4131
22.636719	0.75120628	5606.6465
22.736816	0.7545352	5633.8418
22.836914	0.7583797	5655.6704
22.937012	0.76062381	5681.0112
23.037109	0.76461434	5704.8271
23.137207	0.7689476	5730.7695
23.237305	0.77085197	5753.7241
23.337402	0.77476799	5778.9224
23.4375	0.7792145	5800.6792
23.537598	0.78210533	5824.7314
23.637695	0.78556836	5850.9575
23.737793	0.78910589	5874.4331
23.837891	0.79191327	5898.6387
23.937988	0.7946372	5922.1357
24.038086	0.79807341	5946.1162
24.138184	0.80071688	5970.4043
24.238281	0.80422759	5996.1587
24.338379	0.80707073	6014.6011
24.438477	0.81221759	6046.1201
24.538574	0.81554949	6070.5781
24.638672	0.81786513	6094.5742
24.73877	0.82179308	6119.2734
24.838867	0.82516074	6142.7051
24.938965	0.82844198	6166.1313
25.039063	0.83104372	6187.2534
25.13916	0.83419085	6212.7446
25.239258	0.8380264	6240.9136
25.339355	0.84070563	6264.5527
25.439453	0.84488392	6289.1436
25.539551	0.84855855	6312.2769
25.639648	0.85330307	6337.9766
25.739746	0.85453093	6360.4966
25.839844	0.85908771	6385.4746
25.939941	0.86167753	6410.1831
26.040039	0.86474717	6435.3398
26.140137	0.86814761	6458.1079
26.240234	0.87238848	6483.397
26.340332	0.87461472	6505.5732
26.44043	0.87867081	6533.7383
26.540527	0.88224411	6557.1533
26.640625	0.8861959	6581.7207
26.740723	0.8888185	6604.1572
26.84082	0.89137852	6626.5308
26.940918	0.89588165	6649.3423
27.041016	0.8987397	6675.7075
27.141113	0.90154707	6699.479
27.241211	0.9049356	6724.0093
27.341309	0.90840161	6748.3838
27.441406	0.91245174	6770.1973
27.541504	0.91556907	6794.0649
27.641602	0.91945827	6820.6348
27.741699	0.92154443	6845.6348
27.841797	0.92495978	6870.231
27.941895	0.92901587	6895.6108
28.041992	0.93244016	6917.6343
28.14209	0.93639195	6942.1465
28.242188	0.93837678	6966.6577
28.342285	0.94261169	6989.9922
28.442383	0.94475448	7007.7559
28.54248	0.94796717	7034.7705
28.642578	0.95201135	7060.4512
28.742676	0.95555782	7085.8418
28.842773	0.95842779	7109.8364
28.942871	0.96229911	7134.6626
29.042969	0.96545517	7159.8057
29.143066	0.96816123	7182.1968
29.243164	0.97154975	7207.9092
29.343262	0.9760946	7233.5195
29.443359	0.97999275	7257.0923
29.543457	0.98178387	7280.6401
29.643555	0.98582506	7303.4355
29.743652	0.98867118	7326.7451
29.84375	0.99288225	7350.3896
29.943848	0.9955734	7374.1958
30.043945	0.99958479	7397.8833
30.144043	1.0020792	7422.3213
30.244141	1.0048836	7444.2842
30.344238	1.0090917	7471.6016
30.444336	1.0121614	7495.6104
30.544434	1.0167599	7516.6094
30.644531	1.0197371	7540.0576
30.744629	1.020658	7564.7036
30.844727	1.0252476	7591.4561
30.944824	1.0286778	7614.2378
31.044922	1.0314405	7638.4082
31.14502	1.0346562	7664.7241
31.245117	1.0378093	7688.7637
31.345215	1.0414988	7710.7368
31.445313	1.045531	7735.5078
31.54541	1.0487199	7760.9844
31.645508	1.052615	7783.73
31.745605	1.0552555	7808.1582
31.845703	1.0592222	7829.3696
31.945801	1.0622025	7853.8394
32.045898	1.0657042	7878.228
32.145996	1.0688961	7902.8047
32.246094	1.0726094	7929.0986
32.346191	1.0752738	7949.9063
32.446289	1.0786653	7973.0645
32.546387	1.0817736	7996.8584
32.646484	1.0858178	8020.5508
32.746582	1.0891825	8044.7388
32.84668	1.0923594	8067.3887
32.946777	1.0945261	8091.8838
33.046875	1.0984272	8115.8608
33.146973	1.1020184	8138.5059
33.24707	1.105392	8161.6309
33.347168	1.1084467	8186.1973
33.447266	1.1124849	8211.6719
33.547363	1.1173069	8238.6025
33.647461	1.119265	8266.2588
33.747559	1.1231422	8289.3926
33.847656	1.1265248	8313.4922
33.947754	1.1301428	8334.2666
34.047852	1.1323184	8357.0762
34.147949	1.136905	8379.4883
34.248047	1.1386871	8401.8535
34.348145	1.1425793	8428.7959
34.448242	1.1451334	8448.9707
34.54834	1.1487931	8473.7002
34.648438	1.153025	8498.4219
34.748535	1.1565149	8527.5938
34.848633	1.160112	8552.3232
34.94873	1.163736	8573.3418
35.048828	1.1664152	8596.3613
35.148926	1.1702329	8614.1885
35.249023	1.1723459	8638.7988
35.349121	1.1764079	8661.1992
35.449219	1.180014	8687.2139
35.549316	1.1837661	8714.5654
35.649414	1.1875272	8738.6152
35.749512	1.1903673	8762.5518
35.849609	1.1940837	8786.0664
35.949707	1.1969656	8808.2842
36.049805	1.1999249	8828.4346
36.149902	1.2037337	8853.0078
36.25	1.2064874	8875.4072
36.350098	1.209268	8898.7227
36.450195	1.212272	8921.8672
36.550293	1.2160003	8944.4375
36.650391	1.2195081	8967.2637
36.750488	1.22284	8990.9502
36.850586	1.2257695	9014.9209
36.950684	1.2290776	9034.665
37.050781	1.2313962	9059.9521
37.150879	1.2359649	9081.8809
37.250977	1.2393326	9106.1758
37.351074	1.2426585	9131.1924
37.451172	1.2460917	9155.4775
37.55127	1.2493551	9179.8184
37.651367	1.2525141	9202.0586
37.751465	1.256901	9224.6855
37.851563	1.2580872	9246.8418
37.95166	1.2614876	9271.2588
38.051758	1.2666315	9294.9609
38.151855	1.2685716	9318.1211
38.251953	1.2721777	9344.6113
38.352051	1.2755722	9366.9834
38.452148	1.2798935	9390.5713
38.552246	1.2819052	9412.2217
38.652344	1.2862325	9435.4561
38.752441	1.2893677	9458.1719
38.852539	1.2928098	9481.3672
38.952637	1.2966722	9508.8936
39.052734	1.2978226	9529.9932
39.152832	1.3014197	9554.8506
39.25293	1.3058066	9578.9346
39.353027	1.3093948	9600.5254
39.453125	1.3127357	9624.4072
39.553223	1.3158828	9647.6504
39.65332	1.3192147	9671.8408
39.753418	1.3224602	9694.084
39.853516	1.3257325	9718.2842
39.953613	1.3306022	9741.2373
40.053711	1.3326913	9761.999
40.153809	1.3355285	9785.7314
40.253906	1.3396591	9810.3379
40.354004	1.3432264	9836.0068
40.454102	1.3455927	9857.9912
40.554199	1.3495296	9880.0234
40.654297	1.352033	9904.0977
40.754395	1.3560206	9928.2295
40.854492	1.3596445	9952.6846
40.95459	1.36213	9977.4404
41.054688	1.3660699	10002.15
41.154785	1.3712496	10020.92
41.254883	1.3728529	10045.572
41.35498	1.376611	10071.631
41.455078	1.3794124	10094.229
41.555176	1.3826132	10115.821
41.655273	1.3863564	10142.653
41.755371	1.3896435	10165.543
41.855469	1.39184	10187.047
41.955566	1.3960272	10209.886
42.055664	1.3996273	10231.713
42.155762	1.4029354	10258.276
42.255859	1.4065832	10284.571
42.355957	1.4101416	10306.057
42.456055	1.4128178	10328.202
42.556152	1.417011	10349.724
42.65625	1.4196724	10372.437
42.756348	1.4228016	10394.691
42.856445	1.4263332	10418.492
42.956543	1.4293432	10439.302
43.056641	1.4320493	10463
43.156738	1.4364094	10487.887
43.256836	1.4392287	10512.232
43.356934	1.4428258	10535.216
43.457031	1.4465868	10557.916
43.557129	1.449126	10577.695
43.657227	1.4526039	10601.048
43.757324	1.4560133	10622.104
43.857422	1.4590234	10646.288
43.95752	1.4634371	10668.412
44.057617	1.4663875	10693.27
44.157715	1.4688969	10715.934
44.257813	1.4710993	10737.182
44.35791	1.4754236	10760.904
44.458008	1.4800489	10785.972
44.558105	1.4840752	10810.793
44.658203	1.4854819	10829.318
44.758301	1.4890343	10854.21
44.858398	1.4931828	10878.051
44.958496	1.4959425	10900.335
45.058594	1.4995843	10922.749
45.158691	1.5028715	10945.232
45.258789	1.5071452	10967.631
45.358887	1.5083402	10990.516
45.458984	1.5121192	11012.407
45.559082	1.5155226	11035.655
45.65918	1.5198678	11061.908
45.759277	1.5229672	11086.309
45.859375	1.5256941	11106.893
45.959473	1.5292227	11132.748
46.05957	1.532805	11155.146
46.159668	1.5360534	11176.632
46.259766	1.5391439	11199.362
46.359863	1.5427709	11223.615
46.459961	1.5459597	11245.991
46.560059	1.5509397	11266.328
46.660156	1.5520871	11288.14
46.760254	1.5556157	11311.313
46.860352	1.5595198	11333.098
46.960449	1.5620649	11360.06
47.060547	1.5659451	11380.708
47.160645	1.5691489	11404.823
47.260742	1.5723854	11429.926
47.36084	1.5762478	11453.19
47.460938	1.5789568	11474.699
47.561035	1.5823126	11499.855
47.661133	1.584956	11523.075
47.76123	1.589635	11546.38
47.861328	1.5932679	11570.116
47.961426	1.5957206	11589.528
48.061523	1.5994608	11612.085
48.161621	1.6024292	11636.31
48.261719	1.6060382	11659.714
48.361816	1.6088396	11680.252
48.461914	1.6125232	11703.551
48.562012	1.615715	11728.723
48.662109	1.6190916	11749.301
48.762207	1.6226321	11774.607
48.862305	1.6267419	11797.816
48.962402	1.6306967	11821.044
49.0625	1.6331553	11842.882
49.162598	1.6359866	11865.286
49.262695	1.639235	11888.492
49.362793	1.6424686	11910.633
49.462891	1.6472101	11935.805
49.562988	1.6492844	11956.063
49.663086	1.6533613	11982.649
49.763184	1.656729	12003.008
49.863281	1.6593874	12028.161
49.963379	1.6637057	12050.492
50.063477	1.666218	12075.314
50.163574	1.66969	12093.399
50.263672	1.6729921	12118.254
50.36377	1.6762048	12139.388
50.463867	1.6798586	12162.117
50.563965	1.6822428	12185.008
50.664063	1.6863823	12205.465
50.76416	1.6893774	12232.226
50.864258	1.6937256	12255.249
50.964355	1.6967922	12276.713
51.064453	1.7016739	12306.76
51.164551	1.7041087	12327.45
51.264648	1.7070055	12352.703
51.364746	1.7099649	12372.983
51.464844	1.7127544	12395.228
51.564941	1.7166585	12416.939
51.665039	1.7198086	12439.889
51.765137	1.7224401	12461.407
51.865234	1.7264873	12482.199
51.965332	1.728946	12505.718
52.06543	1.7329484	12527.449
52.165527	1.7355233	12552.875
52.265625	1.7399639	12576.07
52.365723	1.7434835	12598.775
52.46582	1.7457753	12622.569
52.565918	1.7493069	12646.857
52.666016	1.7541558	12669.356
52.766113	1.757133	12691.544
52.866211	1.761207	12712.634
52.966309	1.7631739	12732.808
53.066406	1.7675012	12756.896
53.166504	1.7702162	12780.199
53.266602	1.774013	12804.796
53.366699	1.7760634	12824.117
53.466797	1.7796904	12849.199
53.566895	1.7825931	12868.66
53.666992	1.7856091	12890.896
53.76709	1.7893493	12915.682
53.867188	1.7931312	12936.981
53.967285	1.7970711	12961.109
54.067383	1.8002987	12983.194
54.16748	1.8039376	13006.204
54.267578	1.8065631	13028.308
54.367676	1.8096626	13051.19
54.467773	1.8124193	13073.462
54.567871	1.8158376	13095.904
54.667969	1.8193841	13117.686
54.768066	1.8242121	13140.735
54.868164	1.8258452	13163.054
54.968262	1.8291265	13185.044
55.068359	1.8326581	13210.37
55.168457	1.8356025	13232.475
55.268555	1.8399537	13254.326
55.368652	1.8439591	13277.294
55.46875	1.847136	13299.551
55.568848	1.8499613	13321.828
55.668945	1.8523037	13344.584
55.769043	1.8569946	13368.166
55.869141	1.8598557	13388.1
55.969238	1.8628687	13411.12
56.069336	1.8659472	13433.386
56.169434	1.8704712	13456.479
56.269531	1.8727154	13477.234
56.369629	1.8758744	13498.249
56.469727	1.8790871	13521.395
56.569824	1.8817604	13543.219
56.669922	1.8870443	13565.06
56.77002	1.8898427	13588.134
56.870117	1.8926442	13613.478
56.970215	1.8966079	13634.673
57.070313	1.8994212	13656.323
57.17041	1.9026995	13679.442
57.270508	1.9066423	13703.637
57.370605	1.9095808	13724.906
57.470703	1.9131213	13746.301
57.570801	1.9167006	13769.721
57.670898	1.9198596	13793.52
57.770996	1.9234836	13816.148
57.871094	1.9275993	13837.012
57.971191	1.9300163	13860.372
58.071289	1.9328386	13882.609
58.171387	1.9370198	13905.749
58.271484	1.9397408	13927.475
58.371582	1.9450486	13950.264
58.47168	1.9450486	13972.337
58.571777	1.9501239	13994.836
58.671875	1.9525588	14018.396
58.771973	1.9566089	14039.513
58.87207	1.9600451	14062.828
58.972168	1.9634128	14085.898
59.072266	1.9667149	14108.717
59.172363	1.9696176	14130.858
59.272461	1.9726753	14154.333
59.372559	1.976952	14177.272
59.472656	1.9798338	14200.774
59.572754	1.9830287	14220.978
59.672852	1.9865751	14246.364
59.772949	1.9897461	14267.687
59.873047	1.9931257	14289.346
59.973145	1.9963443	14312.381
60.073242	1.9998282	14334.506
60.17334	2.0033627	14356.945
60.273438	2.0067124	14378.645
60.373535	2.0094543	14396.892
60.473633	2.0125747	14420.13
60.57373	2.0168185	14445.176
60.673828	2.019161	14469.056
60.773926	2.0243554	14490.502
60.874023	2.0269513	14510.43
60.974121	2.0296783	14533.163
61.074219	2.0325303	14555.985
61.174316	2.0368814	14578.929
61.274414	2.0388722	14602.903
61.374512	2.0427794	14624.484
61.474609	2.0473628	14646.985
61.574707	2.0501792	14668.529
61.674805	2.0537882	14691.167
61.774902	2.055922	14714.465
61.875	2.0599933	14735.629
61.975098	2.0624785	14758.017
62.075195	2.0664363	14779.821
62.175293	2.0691304	14800.786
62.275391	2.0729899	14823.584
62.375488	2.0772398	14845.081
62.475586	2.0797462	14867.92
62.575684	2.084002	14889.637
62.675781	2.0869942	14914.205
62.775879	2.0900011	14936.155
62.875977	2.0937085	14956.61
62.976074	2.0963697	14978.475
63.076172	2.0990312	15002.97
63.17627	2.1029651	15023.291
63.276367	2.1069498	15044.438
63.376465	2.1095662	15066
63.476563	2.1121116	15089.582
63.57666	2.1169543	15112.354
63.676758	2.1199436	15133.934
63.776855	2.1226227	15156.676
63.876953	2.1267204	15180.929
63.977051	2.1302075	15203.711
64.077148	2.1341057	15222.793
64.177246	2.1366925	15246.767
64.277344	2.1401076	15265.8
64.377441	2.142653	15289.677
64.477539	2.1459699	15312.68
64.577637	2.150321	15333.603
64.677734	2.153614	15356.257
64.777832	2.1565676	15376.323
64.87793	2.1591544	15396.729
64.978027	2.1631031	15420.977
65.078125	2.1678181	15446.096
65.178223	2.1693885	15468.226
65.27832	2.1736412	15492.779
65.378418	2.1774828	15514.844
65.478516	2.1799831	15533.169
65.578613	2.1838307	15557.274
65.678711	2.1872969	15579.062
65.778809	2.189821	15600.89
65.878906	2.1933258	15623.449
