MTS793|MPT|ENU|1|2|.|/|:|1|0|0|A

Data Acquisition						Time:	62.528809	s	6/4/2018 4:17:50 PM
Time	MTS 4 Displacement 4	MTS 4 Force 4
s	mm	N
0.11523438	0.0010281801	-12.576301
0.21533203	0.0051140785	-11.305697
0.31542969	0.0080704689	-8.7588091
0.41552734	0.011232495	-6.8113208
0.515625	0.014907122	-4.0207992
0.61572266	0.018334389	-2.9641204
0.71582031	0.021222234	-3.2288954
0.81591797	0.024628639	0.26002526
0.91601563	0.028714538	2.9274263
1.0161133	0.031113625	3.7609599
1.1162109	0.034564734	8.0624599
1.2163086	0.037789345	9.6907835
1.3164063	0.041693449	11.978951
1.4165039	0.044646859	14.271867
1.5166016	0.048720837	16.592909
1.6166992	0.050669909	19.246433
1.7167969	0.054189563	23.315195
1.8168945	0.057399273	24.270546
1.9169922	0.061133504	26.733242
2.0170898	0.065755844	31.018444
2.1171875	0.06839335	33.485516
2.2172852	0.07148385	36.377552
2.3173828	0.073713064	40.358307
2.4174805	0.077462196	44.590794
2.5175781	0.081136823	47.89587
2.6176758	0.085166097	51.202065
2.7177734	0.087168813	55.786037
2.8178711	0.091078877	60.455593
2.9179688	0.09483099	64.691071
3.0180664	0.096657872	69.786888
3.1181641	0.10078251	76.894279
3.2182617	0.10506511	83.244034
3.3183594	0.10867715	88.89502
3.418457	0.11183023	95.357933
3.5185547	0.11449158	101.71961
3.6186523	0.11769831	109.98566
3.71875	0.12176335	118.24137
3.8188477	0.12464821	124.25734
3.9189453	0.12828708	132.15096
4.019043	0.13113022	142.81302
4.1191406	0.13369322	150.26796
4.2192383	0.13719499	160.0854
4.3193359	0.141114	171.48079
4.4194336	0.14440119	182.48512
4.5195313	0.14730096	189.85364
4.6196289	0.15052259	200.60223
4.7197266	0.15451312	212.67226
4.8198242	0.15718639	222.36267
4.9199219	0.16024113	235.91129
5.0200195	0.1629889	245.43451
5.1201172	0.16579926	258.58002
5.2202148	0.1698494	271.68524
5.3203125	0.1726985	284.77136
5.4204102	0.1774013	300.5527
5.5205078	0.18010736	313.92194
5.6206055	0.18270612	325.01892
5.7207031	0.18695593	339.61932
5.8208008	0.19075871	357.77399
5.9208984	0.19266605	372.73642
6.0209961	0.19737482	388.35657
6.1210938	0.20105541	401.92856
6.2211914	0.20360053	414.97705
6.3212891	0.20714104	429.16275
6.4213867	0.21039844	444.57996
6.5214844	0.21329522	459.09311
6.621582	0.21630526	476.2262
6.7216797	0.2197504	491.88312
6.8217773	0.22357702	508.61453
6.921875	0.22656322	523.37543
7.0219727	0.22941232	539.76624
7.1220703	0.23299158	554.36212
7.222168	0.23636818	568.48297
7.3222656	0.24030209	583.72369
7.4223633	0.24338961	602.14581
7.5224609	0.24585128	617.49585
7.6225586	0.24974644	633.8562
7.7226563	0.25304556	647.9754
7.8227539	0.25693774	665.0119
7.9228516	0.25959313	682.54462
8.0229492	0.26273727	698.34113
8.1230469	0.26612878	717.60333
8.2231445	0.26945174	731.54321
8.3232422	0.27276278	748.56213
8.4233398	0.27624965	763.61865
8.5234375	0.28026402	783.96399
8.6235352	0.2833426	801.55762
8.7236328	0.28635859	818.08057
8.8237305	0.29016137	833.32477
8.9238281	0.2930671	850.37323
9.0239258	0.29656291	865.76801
9.1240234	0.29907525	881.64795
9.2241211	0.30323863	899.10278
9.3242188	0.30745566	914.63062
9.4243164	0.30995011	929.90967
9.5244141	0.31344891	947.55603
9.6245117	0.31653047	965.0755
9.7246094	0.32097697	981.59845
9.824707	0.32191575	996.32605
9.9248047	0.32605529	1014.3188
10.024902	0.32972097	1033.8854
10.125	0.33301711	1048.7437
10.225098	0.33643246	1062.6973
10.325195	0.33891201	1079.2634
10.425293	0.34323931	1097.7572
10.525391	0.34627616	1112.5983
10.625488	0.3497988	1128.0118
10.725586	0.35426617	1146.8127
10.825684	0.35663843	1163.5817
10.925781	0.35996437	1179.8029
11.025879	0.36373734	1196.8746
11.125977	0.36553442	1214.2997
11.226074	0.3696233	1229.098
11.326172	0.37340522	1244.3629
11.42627	0.3768146	1261.2975
11.526367	0.37935972	1279.4254
11.626465	0.38248003	1293.8707
11.726563	0.38616061	1309.1835
11.82666	0.38925409	1324.074
11.926758	0.39325953	1341.2064
12.026855	0.39703548	1358.0308
12.126953	0.39952695	1374.5184
12.227051	0.40334165	1392.5001
12.327148	0.4065007	1407.5186
12.427246	0.4100889	1421.715
12.527344	0.41390657	1437.8774
12.627441	0.41631162	1454.8282
12.727539	0.41985214	1471.0765
12.827637	0.42261481	1488.3136
12.927734	0.42648911	1506.6646
13.027832	0.43063164	1521.5795
13.12793	0.43336451	1536.8719
13.228027	0.4361093	1552.0411
13.328125	0.44003725	1569.8567
13.428223	0.44305623	1586.0836
13.52832	0.44615269	1601.5931
13.628418	0.44953823	1616.8569
13.728516	0.4532218	1632.1975
13.828613	0.45743883	1647.1776
13.928711	0.45979023	1665.6044
14.028809	0.46389699	1679.7723
14.128906	0.46547353	1694.5629
14.229004	0.47007501	1711.6254
14.329102	0.47360659	1728.1906
14.429199	0.47575235	1745.2983
14.529297	0.48024952	1761.8879
14.629395	0.48364699	1775.7804
14.729492	0.48696995	1792.6758
14.82959	0.48998594	1804.9785
14.929688	0.49446523	1821.2664
15.029785	0.49680471	1835.6914
15.129883	0.49963892	1850.1294
15.22998	0.50292313	1866.1892
15.330078	0.50756037	1882.4271
15.430176	0.50980151	1896.757
15.530273	0.51370561	1914.1616
15.630371	0.5182445	1930.5065
15.730469	0.51951408	1946.563
15.830566	0.52376688	1962.8173
15.930664	0.52693188	1977.9237
16.030762	0.52968264	1991.2419
16.130859	0.53355992	2008.9052
16.230957	0.53709447	2026.545
16.331055	0.53977072	2042.9432
16.431152	0.54335594	2059.386
16.53125	0.54640472	2076.4993
16.631348	0.55011213	2091.4766
16.731445	0.55264533	2105.8652
16.831543	0.5584985	2122.5459
16.931641	0.56073964	2136.9031
17.031738	0.56459904	2149.7478
17.131836	0.5669266	2168.8013
17.231934	0.57052672	2184.855
17.332031	0.57409108	2202.4619
17.432129	0.57730675	2216.9429
17.532227	0.58047771	2233.7578
17.632324	0.58475733	2247.7151
17.732422	0.58796406	2263.2046
17.83252	0.59036613	2282.9629
17.932617	0.59437454	2300.4866
18.032715	0.59826672	2316.6545
18.132813	0.60175359	2330.4536
18.23291	0.6049633	2344.6702
18.333008	0.60859025	2358.1101
18.433105	0.61173141	2376.6902
18.533203	0.61436892	2392.2864
18.633301	0.61773062	2408.3127
18.733398	0.62120259	2427.4021
18.833496	0.62505603	2444.3569
18.933594	0.62819123	2465.0012
19.033691	0.63297153	2485.6914
19.133789	0.63720345	2504.1091
19.233887	0.64091384	2515.5613
19.333984	0.64418018	2533.4067
19.434082	0.64895749	2549.6467
19.53418	0.65150857	2570.1477
19.634277	0.65661371	2600.144
19.734375	0.66161752	2619.1064
19.834473	0.66423416	2634.8872
19.93457	0.66691935	2651.4905
20.034668	0.67064762	2666.2681
20.134766	0.67494214	2683.0051
20.234863	0.67781806	2698.6692
20.334961	0.67971051	2711.1003
20.435059	0.68347156	2731.4475
20.535156	0.68683326	2746.4187
20.635254	0.68944097	2762.3518
20.735352	0.69422424	2777.7847
20.835449	0.69663227	2792.8425
20.935547	0.69905221	2798.7751
21.035645	0.70121884	2813.5117
21.135742	0.70427954	2832.7195
21.23584	0.7081002	2848.658
21.335938	0.71175694	2865.5908
21.436035	0.71371794	2883.0349
21.536133	0.71729124	2900.1257
21.63623	0.72198212	2900.5708
21.736328	0.72484314	2913.6648
21.836426	0.7273674	2928.8579
21.936523	0.73087811	2946.1743
22.036621	0.73429942	2964.5845
22.136719	0.73637068	2980.5854
22.236816	0.74059963	2992.8147
22.336914	0.74376166	3010.7732
22.437012	0.7476002	3028.5603
22.537109	0.7510066	3043.8564
22.637207	0.75392723	3059.4568
22.737305	0.75723529	3073.4827
22.837402	0.76049268	3089.0718
22.9375	0.76348484	3105.5803
23.037598	0.76599717	3122.4492
23.137695	0.76994598	3134.5083
23.237793	0.77382624	3149.5525
23.337891	0.77632666	3165.0781
23.437988	0.77969134	3183.7537
23.538086	0.78373849	3196.9939
23.638184	0.78646243	3215.3215
23.738281	0.79073906	3229.1819
23.838379	0.7927537	3232.5264
23.938477	0.79588294	3249.9705
24.038574	0.79950988	3266.1731
24.138672	0.80251098	3282.9619
24.23877	0.80613196	3300.8574
24.338867	0.80946386	3318.2146
24.438965	0.81286728	3333.231
24.539063	0.81610978	3350.9673
24.63916	0.81862211	3366.4897
24.739258	0.82272887	3380.6133
24.839355	0.82525909	3396.1978
24.939453	0.82946122	3412.7712
25.039551	0.83261132	3431.4795
25.139648	0.83578527	3449.2151
25.239746	0.83943605	3465.4832
25.339844	0.84305704	3482.8577
25.439941	0.84663033	3498.8987
25.540039	0.84943473	3514.7749
25.640137	0.85299611	3532.4382
25.740234	0.85585415	3548.9502
25.840332	0.85953474	3567.4414
25.94043	0.86235702	3583.6492
26.040527	0.86475313	3582.165
26.140625	0.86888075	3601.0857
26.240723	0.87246597	3619.2834
26.34082	0.87469518	3634.2888
26.440918	0.8800298	3653.6079
26.541016	0.8818984	3670.439
26.641113	0.88620782	3689.2695
26.741211	0.889799	3706.0083
26.841309	0.89227855	3723.0295
26.941406	0.89545548	3741.0295
27.041504	0.89812279	3756.4888
27.141602	0.90248287	3775.9333
27.241699	0.90558827	3793.7793
27.341797	0.90808868	3811.2776
27.441895	0.91201961	3827.127
27.541992	0.91585815	3846.1594
27.64209	0.91908872	3862.5083
27.742188	0.92201233	3880.8315
27.842285	0.92626214	3899.8745
27.942383	0.92934072	3918.0981
28.04248	0.93308091	3935.8318
28.142578	0.9360522	3948.9285
28.242676	0.93973577	3967.9158
28.342773	0.94285309	3987.9761
28.442871	0.94736516	4003.2764
28.542969	0.95073581	4018.4517
28.643066	0.95259845	4033.2522
28.743164	0.95664263	4050.1069
28.843262	0.95917881	4067.8372
28.943359	0.96161366	4083.7097
29.043457	0.96543133	4099.4771
29.143555	0.96928179	4115.6914
29.243652	0.97278953	4133.3945
29.34375	0.97569227	4150.9819
29.443848	0.97925663	4164.9126
29.543945	0.98291337	4173.9502
29.644043	0.9860158	4189.5083
29.744141	0.9906292	4170.314
29.844238	0.99409819	4183.3345
29.944336	0.99628568	4198.4639
30.044434	0.99916756	4215.2612
30.144531	1.0023713	4231.8179
30.244629	1.006031	4247.2158
30.344727	1.0088801	4264.0845
30.444824	1.0130942	4278.7417
30.544922	1.0152876	4295.6421
30.64502	1.0195792	4313.2539
30.745117	1.022768	4331.6914
30.845215	1.0259151	4344.0464
30.945313	1.0293126	4360.8936
31.04541	1.0322273	4375.0532
31.145508	1.0349959	4385.2622
31.245605	1.0391563	4403.6011
31.345703	1.0426193	4418.9746
31.445801	1.0455817	4434.6616
31.545898	1.0488391	4452.3193
31.645996	1.0531366	4468.3184
31.746094	1.0563791	4485.9063
31.846191	1.0593653	4502.1108
31.946289	1.0619968	4521.4819
32.046387	1.0668367	4533.7813
32.146484	1.0691196	4553.4155
32.246582	1.0725498	4570.3662
32.34668	1.0767341	4586.5317
32.446777	1.0794431	4603.4028
32.546875	1.0823131	4619.5493
32.646973	1.0855526	4636.3545
32.74707	1.0896593	4637.8955
32.847168	1.0928869	4655.7388
32.947266	1.0954887	4667.6123
33.047363	1.0995805	4685.8198
33.147461	1.1024684	4698.5933
33.247559	1.1078894	4701.8677
33.347656	1.1092156	4714.394
33.447754	1.1121452	4730.7529
33.547852	1.1166126	4746.6606
33.647949	1.1191308	4761.9097
33.748047	1.123178	4774.9131
33.848145	1.1267364	4790.707
33.948242	1.1293828	4805.334
34.04834	1.1332929	4783.4575
34.148438	1.1364013	4793.9014
34.248535	1.1405051	4810.458
34.348633	1.1429578	4825.9316
34.44873	1.1464357	4838.1729
34.548828	1.151517	4853.8604
34.648926	1.1526942	4869.4336
34.749023	1.1577696	4849.5205
34.849121	1.1600614	4862.686
34.949219	1.1632711	4879.3672
35.049316	1.1675209	4797.0576
35.149414	1.1707217	4806.6128
35.249512	1.1746526	4821.0322
35.349609	1.1768371	4836.1772
35.449707	1.1809021	4847.9399
35.549805	1.1827677	4863.8945
35.649902	1.1868805	4881.3535
35.75	1.1901885	4897.146
35.850098	1.1932045	4910.5244
35.950195	1.1950791	4926.1509
36.050293	1.1998922	4942.6016
36.150391	1.2035042	4958.1401
36.250488	1.2059629	4975.729
36.350586	1.20866	4983.6997
36.450684	1.2133867	4997.2686
36.550781	1.215741	5014.9985
36.650879	1.2196392	5030.7935
36.750977	1.2248874	5009.3892
36.851074	1.226449	5012.8682
36.951172	1.229611	5027.063
37.05127	1.2328625	5035.6836
37.151367	1.2368828	5051.1519
37.251465	1.2392223	5067.8481
37.351563	1.2438148	5079.6875
37.45166	1.2483507	4862.8643
37.551758	1.2521625	4845.8828
37.651855	1.2549847	4860.3716
37.751953	1.2588114	4876.0605
37.852051	1.2620151	4890.8501
37.952148	1.2652755	4905.5879
38.052246	1.2675911	4921.0317
38.152344	1.2710273	4937.876
38.252441	1.275146	4964.2061
38.352539	1.2819022	4996.7817
38.452637	1.2850195	5011.9253
38.552734	1.2884378	5013.832
38.652832	1.2910128	5027.0918
38.75293	1.2936622	5042.6084
38.853027	1.2973934	5058.4019
38.953125	1.299873	5074.6387
39.053223	1.3033926	5090.8682
39.15332	1.3066351	5106.5269
39.253418	1.3087481	5116.7505
39.353516	1.3105989	5125.2817
39.453613	1.3135761	5144.5381
39.553711	1.317367	5162.5283
39.653809	1.3216466	5181.6914
39.753906	1.326555	5207.4063
39.854004	1.3297111	5223.7031
39.954102	1.3330936	5241.9585
40.054199	1.3365775	5257.0322
40.154297	1.3390958	5269.7969
40.254395	1.3414323	5284.4209
40.354492	1.3446242	5296.8159
40.45459	1.3482273	5310.1226
40.554688	1.3518631	5328.0581
40.654785	1.3555974	5336.4453
40.754883	1.357767	5352.1089
40.85498	1.3618529	5368.4092
40.955078	1.3642162	5383.0215
41.055176	1.3672531	5400.0459
41.155273	1.370737	5415.5737
41.255371	1.374495	5410.5347
41.355469	1.3775855	5424.9146
41.455566	1.3808727	5440.9795
41.555664	1.3846874	5457.7778
41.655762	1.3867438	5461.4399
41.755859	1.3916671	5472.8657
41.855957	1.3944	5447.5361
41.956055	1.39741	5463.1475
42.056152	1.400885	5477.4897
42.15625	1.4041603	5494.0454
42.256348	1.4072686	5513.3501
42.356445	1.4116526	5530.9419
42.456543	1.4145672	5547.9712
42.556641	1.418066	5563.0249
42.656738	1.4217973	5580.1084
42.756836	1.4244586	5593.9844
42.856934	1.427269	5601.9819
42.957031	1.4310479	5617.9424
43.057129	1.4339	5634.3799
43.157227	1.4370799	5650.5889
43.257324	1.4399737	5666.6187
43.357422	1.4431745	5681.0908
43.45752	1.4480263	5697.3145
43.557617	1.4517128	5711.0518
43.657715	1.4540642	5723.8862
43.757813	1.4580786	5736.0781
43.85791	1.4607489	5752.2021
43.958008	1.4642119	5715.667
44.058105	1.4673412	5728.106
44.158203	1.4705867	5739.5293
44.258301	1.4737427	5757.459
44.358398	1.4766753	5771.7144
44.458496	1.4810681	5787.7544
44.558594	1.4838547	5803.645
44.658691	1.4867216	5821.4229
44.758789	1.4903188	5836.1069
44.858887	1.4931351	5851.8452
44.958984	1.4964491	5869.1304
45.059082	1.5007526	5886.1138
45.15918	1.502955	5902.4482
45.259277	1.5080482	5916.981
45.359375	1.5098125	5931.8203
45.459473	1.5134871	5945.9976
45.55957	1.5161633	5961.6274
45.659668	1.5194744	5977.8135
45.759766	1.523754	5994.3823
45.859863	1.5276134	6014.8755
45.959961	1.5304178	6022.998
46.060059	1.5347123	6036.188
46.160156	1.5370816	6049.7231
46.260254	1.5400529	6063.6021
46.360352	1.5427351	6077.5059
46.460449	1.5474111	6094.3008
46.560547	1.5506655	6109.2695
46.660645	1.5538603	6122.0444
46.760742	1.5583903	5904.145
46.86084	1.5631318	5920.4443
46.960938	1.5663981	5933.9463
47.061035	1.5684962	5947.3677
47.161133	1.5717179	5953.8027
47.26123	1.5755177	5971.3696
47.361328	1.5783101	5985.9844
47.461426	1.5817404	6002.0474
47.561523	1.5852839	6017.062
47.661621	1.5869737	6032.5532
47.761719	1.5918702	6046.3945
47.861816	1.5934885	6062.5264
47.961914	1.5972286	6075.999
48.062012	1.6015321	6022.0093
48.162109	1.6047716	6038.8125
48.262207	1.6074151	6053.0005
48.362305	1.610148	6049.5273
48.462402	1.6153723	5972.5435
48.5625	1.6199946	5793.623
48.662598	1.6242862	5802.3652
48.762695	1.627022	5815.0415
48.862793	1.6296655	5828.1016
48.962891	1.6331226	5829.3633
49.062988	1.6367346	5844.0869
49.163086	1.6382098	5854.7896
49.263184	1.6410589	5867.8242
49.363281	1.6450793	5882.2578
49.463379	1.6494036	5805.6938
49.563477	1.6524106	5753.5327
49.663574	1.6569883	5738.4438
49.763672	1.6600132	5659.3193
49.86377	1.6639531	5662.9536
49.963867	1.6669959	5676.1172
50.063965	1.6702116	5689.2944
50.164063	1.6731769	5697.8838
50.26416	1.6784251	5653.5313
50.364258	1.6811877	5666.457
50.464355	1.6826659	5679.7266
50.564453	1.6860873	5693.5684
50.664551	1.689449	5707.2095
50.764648	1.6926259	5720.7212
50.864746	1.696977	5657.3999
50.964844	1.7006278	5672.0508
51.064941	1.7039627	5592.8394
51.165039	1.7072588	5605.1162
51.265137	1.7132014	5399.0435
51.365234	1.7145216	5406.2939
51.465332	1.7186284	5411.6279
51.56543	1.7222464	5421.8809
51.665527	1.72517	5435.2388
51.765625	1.7277181	5448.3711
51.865723	1.7318279	5364.9736
51.96582	1.7343253	5376.2129
52.065918	1.7376512	5389.604
52.166016	1.7425716	5402.5806
52.266113	1.7436594	5415.1538
52.366211	1.7468959	5428.9556
52.466309	1.7500639	5439.0762
52.566406	1.7530292	5453.6646
52.666504	1.7566413	5466.3857
52.766602	1.7603546	5479.54
52.866699	1.7630547	5491.8237
52.966797	1.766026	5504.2188
53.066895	1.7700583	5476.5361
53.166992	1.7728865	5495.4038
53.26709	1.7760754	5508.1807
53.367188	1.7801255	5520.772
53.467285	1.7825603	5532.0757
53.567383	1.787132	5543.8545
53.66748	1.7895341	5557.2222
53.767578	1.7921627	5571.3203
53.867676	1.7955422	5583.7676
53.967773	1.7990589	5596.3643
54.067871	1.8022269	5610.3921
54.167969	1.805079	5622.5947
54.268066	1.8083483	5615.9971
54.368164	1.8123806	5601.751
54.468262	1.8171102	5525.7578
54.568359	1.8202275	5537.4814
54.668457	1.8231601	5550.5879
54.768555	1.8263817	5563.0991
54.868652	1.8296748	5576.3848
54.96875	1.832372	5572.8354
55.068848	1.8360674	5585.9043
55.168945	1.8391341	5598.5757
55.269043	1.8419921	5612.3804
55.369141	1.8447667	5625.3091
55.469238	1.8487275	5637.417
55.569336	1.8509686	5648.9526
55.669434	1.8548071	5662.7876
55.769531	1.8578261	5674.8696
55.869629	1.8604606	5687.5884
55.969727	1.8652856	5700.6172
56.069824	1.867649	5712.8154
56.169922	1.8717855	5724.0806
56.27002	1.8741041	5737.3306
56.370117	1.8778026	5751.0854
56.470215	1.8802524	5761.2456
56.570313	1.8836021	5774.5576
56.67041	1.8871844	5788.7822
56.770508	1.8900782	5801.3931
56.870605	1.8941462	5813.042
56.970703	1.8972874	5825.2959
57.070801	1.9004583	5835.4795
57.170898	1.9042343	5805.6016
57.270996	1.9082606	5816.4834
57.371094	1.9099087	5828.4072
57.471191	1.9136876	5840.1929
57.571289	1.9165516	5854.1284
57.671387	1.9206256	5866.4341
57.771484	1.9235373	5879.2144
57.871582	1.9272268	5891.8594
57.97168	1.929906	5905.312
58.071777	1.9335091	5918.5146
58.171875	1.9368231	5923.9946
58.271973	1.9408584	5937.1235
58.37207	1.9431323	5947.6567
58.472168	1.9469738	5955.8418
58.572266	1.9496262	5968.5693
58.672363	1.9535899	5982.4512
58.772461	1.9586027	5784.0762
58.872559	1.9625694	5796.1655
58.972656	1.9655794	5802.6953
59.072754	1.9690961	5814.8306
59.172852	1.9713432	5825.3511
59.272949	1.974839	5839.2642
59.373047	1.9775897	5846.7759
59.473145	1.981467	5858.8809
59.573242	1.9849151	5865.1875
59.67334	1.9882739	5875.7124
59.773438	1.990363	5889.8037
59.873535	1.9947916	5898.5947
59.973633	1.9979984	5909.4219
60.07373	2.0005198	5921.7866
60.173828	2.0034254	5933.0952
60.273926	2.0077407	5906.2539
60.374023	2.0124407	5854.6118
60.474121	2.0141006	5866.2593
60.574219	2.0182343	5878.5171
60.674316	2.0213127	5886.3774
60.774414	2.0246415	5880.3389
60.874512	2.0280094	5886.8569
60.974609	2.0309834	5895.4097
61.074707	2.0349951	5908.1182
61.174805	2.0375967	5918.8062
61.274902	2.0411224	5930.3374
61.375	2.0439684	5940.918
61.475098	2.0483494	5953.6045
61.575195	2.0512462	5962.8965
61.675293	2.0550461	5971.8271
61.775391	2.0584285	5979.1367
61.875488	2.0606458	5987.8643
61.975586	2.0641537	5999.2075
62.075684	2.067688	6006.4419
62.175781	2.0716727	6016.9263
62.275879	2.0735593	6025.5688
62.375977	2.0774722	6034.5522
62.476074	2.0801485	6042.3599

Data Acquisition						Time:	2.7119141	s	6/4/2018 4:18:40 PM
Time	MTS 4 Displacement 4	MTS 4 Force 4
s	mm	N
0.11523438	2.0825772	289.32468
0.21533203	2.0846696	295.63699
0.31542969	2.0879805	302.24408
0.41552734	2.0917356	308.66861
0.515625	2.0946889	314.80136
0.61572266	2.0992398	321.9433
0.71582031	2.1020203	327.85608
0.81591797	2.1060407	334.8251
0.91601563	2.1097422	341.37183
1.0161133	2.1124542	346.31351
1.1162109	2.1154642	352.49405
1.2163086	2.1185875	359.06137
1.3164063	2.1222444	364.94897
1.4165039	2.1256118	370.72385
1.5166016	2.1294177	375.77292
1.6166992	2.1327586	382.17679
1.7167969	2.1355867	388.06107
1.8168945	2.1395206	394.34854
1.9169922	2.1421015	401.98581
2.0170898	2.146256	406.70847
2.1171875	2.1497726	412.2749
2.2172852	2.1523981	418.13693
2.3173828	2.1560907	420.75357
2.4174805	2.1589756	428.42477
2.5175781	2.1622539	434.311
2.6176758	2.1662383	439.04706

Data Acquisition						Time:	6.2207031	s	6/4/2018 4:19:00 PM
Time	MTS 4 Displacement 4	MTS 4 Force 4
s	mm	N
